time, angle
22.523, 1.520181778
22.539, 1.51669112
22.556, 1.51669112
22.573, 1.51669112
22.589, 1.514945791
22.606, 1.514945791
22.623, 1.513200461
22.639, 1.513200461
22.656, 1.509709803
22.673, 1.509709803
22.689, 1.511455132
22.706, 1.509709803
22.723, 1.509709803
22.739, 1.511455132
22.756, 1.511455132
22.773, 1.511455132
22.789, 1.513200461
22.806, 1.513200461
22.823, 1.513200461
22.839, 1.513200461
22.856, 1.513200461
22.873, 1.511455132
22.89, 1.506219144
22.906, 1.499237827
22.923, 1.487020523
22.94, 1.452113938
22.956, 1.408480706
22.973, 1.378810109
22.99, 1.32994089
23.006, 1.272345025
23.023, 1.181587904
23.04, 1.110029404
23.056, 1.027998929
23.073, 0.952949772
23.09, 0.856956663
23.106, 0.759218225
23.123, 0.682423738
23.14, 0.593411946
23.156, 0.507890812
23.173, 0.41887902
23.19, 0.335103216
23.207, 0.251327412
23.223, 0.165806279
23.24, 0.078539816
23.257, -0.04712389
23.273, -0.125663706
23.29, -0.216420827
23.307, -0.301941961
23.323, -0.301941961
23.34, -0.472984227
23.357, -0.563741348
23.373, -0.563741348
23.39, -0.743510261
23.407, -0.827286065
23.423, -0.918043187
23.44, -0.996583003
23.457, -1.087340124
23.473, -1.155407965
23.49, -1.219985147
23.507, -1.282817
23.524, -1.335176878
23.54, -1.382300768
23.557, -1.420698011
23.574, -1.450368608
23.59, -1.471312559
23.607, -1.480039206
23.624, -1.480039206
23.64, -1.46956723
23.657, -1.455604596
23.674, -1.420698011
23.69, -1.410226036
23.707, -1.375319451
23.724, -1.32994089
23.74, -1.267109037
23.757, -1.16587994
23.774, -1.101302758
23.79, -1.024508271
23.807, -0.940732467
23.824, -0.851720675
23.84, -0.759218225
23.857, -0.666715774
23.874, -0.577703982
23.891, -0.49043752
23.907, -0.403171057
23.924, -0.315904595
23.941, -0.226892803
23.957, -0.137881011
23.974, -0.050614548
23.991, 0.031415927
24.007, 0.115191731
24.024, 0.202458193
24.041, 0.291469985
24.057, 0.380481777
24.074, 0.46600291
24.091, 0.551524044
24.107, 0.649262482
24.124, 0.738274274
24.141, 0.825540736
24.157, 0.91106187
24.174, 0.986111027
24.191, 1.059414856
24.208, 1.125737368
24.224, 1.183333233
24.241, 1.240929098
24.258, 1.279326342
24.274, 1.314232927
24.291, 1.340412866
24.308, 1.361356817
24.324, 1.371828792
24.341, 1.373574121
24.358, 1.394518072
24.374, 1.384046097
24.391, 1.371828792
24.408, 1.342158195
24.424, 1.300270293
24.441, 1.256637061
24.458, 1.172861257
24.474, 1.118756051
24.491, 1.05068821
24.508, 0.972148393
24.524, 0.893608577
24.541, 0.813323431
24.558, 0.726056969
24.575, 0.640535835
24.591, 0.56025069
24.608, 0.474729557
24.625, 0.390953752
24.641, 0.308923278
24.658, 0.226892803
24.675, 0.11693706
24.691, 0.040142573
24.708, -0.040142573
24.725, -0.120427718
24.741, -0.202458193
24.758, -0.284488668
24.775, -0.370009801
24.791, -0.455530935
24.808, -0.544542727
24.825, -0.631809189
24.841, -0.72256631
24.858, -0.813323431
24.875, -0.895353906
24.892, -0.975639052
24.908, -1.052433539
24.925, -1.141445331
24.942, -1.186823891
24.958, -1.244419757
24.975, -1.293288976
24.992, -1.331686219
25.008, -1.364847475
25.025, -1.385791426
25.042, -1.39975406
25.058, -1.403244719
25.075, -1.39975406
25.092, -1.385791426
25.108, -1.364847475
25.125, -1.335176878
25.142, -1.293288976
25.158, -1.242674427
25.175, -1.19031455
25.192, -1.123992038
25.209, -1.064650844
25.225, -0.998328332
25.242, -0.925024504
25.259, -0.844739358
25.275, -0.759218225
25.292, -0.671951762
25.309, -0.581194641
25.325, -0.493928178
25.342, -0.408407045
25.359, -0.322885912
25.375, -0.239110108
25.392, -0.153588974
25.409, -0.073303829
25.425, 0.010471976
25.442, 0.11693706
25.459, 0.198967535
25.475, 0.27925268
25.492, 0.343829863
25.509, 0.427605667
25.526, 0.514872129
25.542, 0.603883921
25.559, 0.685914396
25.576, 0.766199542
25.592, 0.844739358
25.609, 0.918043187
25.626, 0.989601686
25.642, 1.054178868
25.659, 1.111774734
25.676, 1.16587994
25.692, 1.21300383
25.709, 1.253146403
25.726, 1.282817
25.742, 1.303760951
25.759, 1.312487597
25.776, 1.314232927
25.792, 1.310742268
25.809, 1.296779634
25.826, 1.274090354
25.842, 1.265363708
25.859, 1.223475806
25.876, 1.178097245
25.893, 1.125737368
25.909, 1.066396173
25.926, 1.000073661
25.943, 0.930260491
25.959, 0.855211333
25.976, 0.774926188
25.993, 0.687659725
26.009, 0.596902604
26.026, 0.5131268
26.043, 0.431096325
26.059, 0.34906585
26.076, 0.272271363
26.093, 0.200712864
26.109, 0.125663706
26.126, 0.045378561
26.143, -0.052359878
26.159, -0.13962634
26.176, -0.202458193
26.193, -0.202458193
26.21, -0.392699082
26.226, -0.478220215
26.243, -0.555014702
26.26, -0.631809189
26.276, -0.713839664
26.293, -0.795870139
26.31, -0.869173967
26.326, -0.949459113
26.343, -1.019272283
26.36, -1.089085453
26.376, -1.148426648
26.393, -1.193805208
26.41, -1.263618378
26.426, -1.284562329
26.443, -1.310742268
26.46, -1.32994089
26.476, -1.340412866
26.493, -1.338667536
26.51, -1.338667536
26.527, -1.324704902
26.543, -1.298524963
26.56, -1.265363708
26.577, -1.226966464
26.593, -1.176351916
26.61, -1.118756051
26.627, -1.055924197
26.643, -0.991347015
26.66, -0.925024504
26.677, -0.855211333
26.693, -0.774926188
26.71, -0.691150384
26.727, -0.603883921
26.743, -0.520108117
26.76, -0.439822972
26.777, -0.357792497
26.793, -0.275762022
26.81, -0.191986218
26.827, -0.108210414
26.843, -0.029670597
26.86, 0.075049158
26.877, 0.129154365
26.894, 0.23387412
26.91, 0.312413936
26.927, 0.392699082
26.944, 0.472984227
26.96, 0.556760031
26.977, 0.628318531
26.994, 0.703367689
27.01, 0.776671517
27.027, 0.849975346
27.044, 0.921533845
27.06, 0.984365698
27.077, 1.043706893
27.094, 1.0978121
27.11, 1.141445331
27.127, 1.179842574
27.144, 1.211258501
27.16, 1.233947781
27.177, 1.251401074
27.194, 1.256637061
27.211, 1.253146403
27.227, 1.240929098
27.244, 1.221730476
27.261, 1.207767842
27.277, 1.169370599
27.294, 1.122246709
27.311, 1.075122819
27.327, 1.017526954
27.344, 0.952949772
27.361, 0.890117919
27.377, 0.81681409
27.394, 0.745255591
27.411, 0.663225116
27.427, 0.572467995
27.444, 0.49043752
27.461, 0.411897703
27.477, 0.335103216
27.494, 0.2565634
27.511, 0.179768913
27.527, 0.108210414
27.544, 0.038397244
27.561, -0.038397244
27.578, -0.118682389
27.594, -0.200712864
27.611, -0.27925268
27.628, -0.357792497
27.644, -0.438077642
27.661, -0.516617459
27.678, -0.596902604
27.694, -0.67718775
27.711, -0.755727566
27.728, -0.830776724
27.744, -0.902335223
27.761, -0.972148393
27.778, -1.038470905
27.794, -1.09606677
27.811, -1.144935989
27.828, -1.188569221
27.844, -1.226966464
27.861, -1.247910415
27.878, -1.265363708
27.895, -1.275835683
27.911, -1.277581012
27.928, -1.268854366
27.945, -1.247910415
27.961, -1.221730476
27.978, -1.185078562
27.995, -1.144935989
28.011, -1.09606677
28.028, -1.038470905
28.045, -0.975639052
28.061, -0.90931654
28.078, -0.848230016
28.095, -0.780162176
28.111, -0.708603676
28.128, -0.63006386
28.145, -0.551524044
28.161, -0.46774824
28.178, -0.387463094
28.195, -0.308923278
28.212, -0.228638132
28.228, -0.150098316
28.245, -0.068067841
28.262, 0.012217305
28.278, 0.083775804
28.295, 0.158824962
28.312, 0.242600766
28.328, 0.322885912
28.345, 0.403171057
28.362, 0.483456203
28.378, 0.56025069
28.395, 0.637045177
28.412, 0.715584993
28.428, 0.780162176
28.445, 0.842994029
28.462, 0.905825882
28.478, 0.966912406
28.495, 1.022762942
28.512, 1.069886831
28.529, 1.110029404
28.545, 1.14319066
28.562, 1.16762527
28.579, 1.185078562
28.595, 1.193805208
28.612, 1.197295867
28.629, 1.192059879
28.645, 1.178097245
28.662, 1.153662636
28.679, 1.123992038
28.695, 1.106538746
28.712, 1.061160185
28.729, 1.007054978
28.745, 0.951204442
28.762, 0.888372589
28.779, 0.822050078
28.795, 0.750491578
28.812, 0.67718775
28.829, 0.600393263
28.845, 0.523598776
28.862, 0.441568301
28.879, 0.363028484
28.896, 0.284488668
28.912, 0.20943951
28.929, 0.141371669
28.946, 0.06981317
28.962, -0.005235988
28.979, -0.080285146
28.996, -0.160570291
29.012, -0.237364778
29.029, -0.315904595
29.046, -0.392699082
29.062, -0.46774824
29.079, -0.544542727
29.096, -0.619591884
29.112, -0.694641042
29.129, -0.7696902
29.146, -0.83950337
29.162, -0.905825882
29.179, -0.968657735
29.196, -1.024508271
29.213, -1.076868148
29.229, -1.122246709
29.246, -1.157153294
29.263, -1.186823891
29.279, -1.206022513
29.296, -1.218239818
29.313, -1.219985147
29.329, -1.214749159
29.346, -1.199041196
29.363, -1.174606587
29.379, -1.141445331
29.396, -1.099557429
29.413, -1.054178868
29.429, -1.007054978
29.446, -0.961676418
29.463, -0.905825882
29.479, -0.844739358
29.496, -0.771435529
29.513, -0.698131701
29.53, -0.621337214
29.546, -0.542797397
29.563, -0.462512252
29.58, -0.383972435
29.596, -0.305432619
29.613, -0.228638132
29.63, -0.151843645
29.646, -0.075049158
29.663, -0.795870139
29.68, -0.764454212
29.696, -0.734783615
29.713, 0.226892803
29.73, 0.301941961
29.746, 0.376991118
29.763, 0.455530935
29.78, 0.532325422
29.796, 0.612610567
29.813, 0.682423738
29.83, 0.750491578
29.846, 0.815068761
29.863, 0.872664626
29.88, 0.932005821
29.897, 0.984365698
29.913, 1.029744259
29.93, 1.066396173
29.947, 1.0978121
29.963, 1.123992038
29.98, 1.139700002
29.997, 1.148426648
30.013, 1.148426648
30.03, 1.141445331
30.047, 1.125737368
30.063, 1.103048087
30.08, 1.071632161
30.097, 1.033234917
30.113, 0.987856357
30.13, 0.935496479
30.147, 0.904080553
30.163, 0.83950337
30.18, 0.776671517
30.197, 0.708603676
30.214, 0.635299848
30.23, 0.563741348
30.247, 0.492182849
30.264, 0.415388362
30.28, 0.340339204
30.297, 0.265290046
30.314, 0.191986218
30.33, 0.120427718
30.347, 0.04712389
30.364, -0.026179939
30.38, -0.099483767
30.397, -0.176278254
30.414, -0.249582083
30.43, -0.32637657
30.447, -0.403171057
30.464, -0.476474886
30.48, -0.549778714
30.497, -0.623082543
30.514, -0.696386372
30.53, -0.766199542
30.547, -0.834267382
30.564, -0.898844565
30.581, -0.95644043
30.597, -1.010545637
30.614, -1.055924197
30.631, -1.094321441
30.647, -1.125737368
30.664, -1.148426648
30.681, -1.164134611
30.697, -1.169370599
30.714, -1.169370599
30.731, -1.158898623
30.747, -1.139700002
30.764, -1.113520063
30.781, -1.078613478
30.797, -1.034980246
30.814, -0.987856357
30.831, -0.961676418
30.847, -0.904080553
30.864, -0.842994029
30.881, -0.778416846
30.898, -0.706858347
30.914, -0.635299848
30.931, -0.561996019
30.948, -0.485201532
30.964, -0.408407045
30.981, -0.333357887
30.998, -0.2565634
31.014, -0.181514242
31.031, -0.104719755
31.048, -0.031415927
31.064, 0.041887902
31.081, 0.11693706
31.098, 0.190240888
31.114, 0.265290046
31.131, 0.336848546
31.148, 0.410152374
31.164, 0.486946861
31.181, 0.558505361
31.198, 0.63006386
31.215, 0.701622359
31.231, 0.767944871
31.248, 0.827286065
31.265, 0.883136602
31.281, 0.93375115
31.298, 0.97912971
31.315, 1.015781625
31.331, 1.04894288
31.348, 1.075122819
31.365, 1.09606677
31.381, 1.104793417
31.398, 1.106538746
31.415, 1.103048087
31.431, 1.090830782
31.448, 1.068141502
31.465, 1.040216234
31.481, 1.005309649
31.498, 0.963421747
31.515, 0.916297857
31.532, 0.86219265
31.548, 0.806342114
31.565, 0.738274274
31.582, 0.671951762
31.598, 0.598647933
31.615, 0.523598776
31.632, 0.450294947
31.648, 0.376991118
31.665, 0.30368729
31.682, 0.230383461
31.698, 0.157079633
31.715, 0.083775804
31.732, 0.010471976
31.748, -0.062831853
31.765, -0.136135682
31.782, -0.20943951
31.798, -0.28099801
31.815, -0.357792497
31.832, -0.431096325
31.848, -0.506145483
31.865, -0.577703982
31.882, -0.649262482
31.899, -0.715584993
31.915, -0.778416846
31.932, -0.841248699
31.949, -0.881391272
31.965, -0.932005821
31.982, -0.98087504
31.999, -1.024508271
32.015, -1.061160185
32.032, -1.089085453
32.049, -1.111774734
32.065, -1.125737368
32.082, -1.130973355
32.099, -1.139700002
32.115, -1.130973355
32.132, -1.12050138
32.149, -1.0978121
32.165, -1.071632161
32.182, -1.031489588
32.199, -0.986111027
32.216, -0.935496479
32.232, -0.879645943
32.249, -0.818559419
32.266, -0.755727566
32.282, -0.687659725
32.299, -0.617846555
32.316, -0.546288056
32.332, -0.472984227
32.349, -0.399680399
32.366, -0.324631241
32.382, -0.251327412
32.399, -0.176278254
32.416, -0.101229097
32.432, -0.027925268
32.449, 0.043633231
32.466, 0.113446401
32.482, 0.18675023
32.499, 0.260054059
32.516, 0.331612558
32.532, 0.406661716
32.549, 0.478220215
32.566, 0.548033385
32.583, 0.617846555
32.599, 0.684169067
32.616, 0.74700092
32.633, 0.808087444
32.649, 0.856956663
32.666, 0.90931654
32.683, 0.951204442
32.699, 0.989601686
32.716, 1.021017612
32.733, 1.045452222
32.749, 1.061160185
32.766, 1.068141502
32.783, 1.068141502
32.799, 1.062905514
32.816, 1.04894288
32.833, 1.0262536
32.849, 1.000073661
32.866, 0.965167076
32.883, 0.925024504
32.9, 0.876155285
32.916, 0.820304748
32.933, 0.764454212
32.95, 0.706858347
32.966, 0.649262482
32.983, 0.593411946
33, 0.527089434
33.016, 0.459021593
33.033, 0.389208423
33.05, 0.319395253
33.066, 0.249582083
33.083, 0.176278254
33.1, 0.109955743
33.116, 0.040142573
33.133, -0.029670597
33.15, -0.099483767
33.166, -0.169296937
33.183, -0.239110108
33.2, -0.310668607
33.217, -0.382227106
33.233, -0.452040276
33.25, -0.525344105
33.267, -0.595157275
33.283, -0.661479787
33.3, -0.726056969
33.317, -0.785398163
33.333, -0.844739358
33.35, -0.898844565
33.367, -0.947713784
33.383, -0.989601686
33.4, -1.0262536
33.417, -1.054178868
33.433, -1.075122819
33.45, -1.089085453
33.467, -1.092576112
33.483, -1.087340124
33.5, -1.07337749
33.517, -1.052433539
33.533, -1.022762942
33.55, -0.986111027
33.567, -0.944223125
33.584, -0.895353906
33.6, -0.83950337
33.617, -0.780162176
33.634, -0.717330323
33.65, -0.651007811
33.667, -0.58293997
33.684, -0.514872129
33.7, -0.445058959
33.717, -0.376991118
33.734, -0.305432619
33.75, -0.235619449
33.767, -0.16406095
33.784, -0.09250245
33.8, -0.02268928
33.817, 0.045378561
33.834, 0.115191731
33.85, 0.179768913
33.867, 0.242600766
33.884, 0.308923278
33.901, 0.375245789
33.917, 0.441568301
33.934, 0.511381471
33.951, 0.577703982
33.967, 0.647517152
33.984, 0.706858347
34.001, 0.764454212
34.017, 0.818559419
34.034, 0.86393798
34.051, 0.90931654
34.067, 0.942477796
34.084, 0.972148393
34.101, 1.000073661
34.117, 1.019272283
34.134, 1.031489588
34.151, 1.034980246
34.167, 1.034980246
34.184, 1.022762942
34.201, 1.005309649
34.218, 0.977384381
34.234, 0.947713784
34.251, 0.90931654
34.268, 0.867428638
34.284, 0.81681409
34.301, 0.762708883
34.318, 0.708603676
34.334, 0.649262482
34.351, 0.586430629
34.368, 0.532325422
34.384, 0.46774824
34.401, 0.403171057
34.418, 0.335103216
34.434, 0.265290046
34.451, 0.18675023
34.468, 0.115191731
34.484, 0.059341195
34.501, -0.006981317
34.518, -0.076794487
34.535, -0.143116999
34.551, -0.212930169
34.568, -0.27925268
34.585, -0.34906585
34.601, -0.417133691
34.618, -0.485201532
34.635, -0.555014702
34.651, -0.623082543
34.668, -0.687659725
34.685, -0.748746249
34.701, -0.804596785
34.718, -0.856956663
34.735, -0.905825882
34.751, -0.945968455
34.768, -0.982620369
34.785, -1.010545637
34.801, -1.031489588
34.818, -1.04894288
34.835, -1.052433539
34.851, -1.052433539
34.868, -1.040216234
34.885, -1.022762942
34.902, -0.998328332
34.918, -0.966912406
34.935, -0.923279174
34.952, -0.876155285
34.968, -0.822050078
34.985, -0.766199542
35.002, -0.703367689
35.018, -0.638790506
35.035, -0.574213324
35.052, -0.507890812
35.068, -0.439822972
35.085, -0.37350046
35.102, -0.30368729
35.118, -0.235619449
35.135, -0.167551608
35.152, -0.099483767
35.168, -0.031415927
35.185, 0.036651914
35.202, 0.102974426
35.219, 0.171042267
35.235, 0.235619449
35.252, 0.296705973
35.269, 0.361283155
35.285, 0.422369679
35.302, 0.485201532
35.319, 0.546288056
35.335, 0.609119909
35.352, 0.668461104
35.369, 0.727802298
35.385, 0.781907505
35.402, 0.829031395
35.419, 0.870919297
35.435, 0.90931654
35.452, 0.940732467
35.469, 0.965167076
35.485, 0.982620369
35.502, 0.996583003
35.519, 1.001818991
35.535, 1.000073661
35.552, 0.989601686
35.569, 0.972148393
35.586, 0.949459113
35.602, 0.918043187
35.619, 0.884881931
35.636, 0.841248699
35.652, 0.79237948
35.669, 0.740019603
35.686, 0.682423738
35.702, 0.624827872
35.719, 0.567232007
35.736, 0.504400154
35.752, 0.445058959
35.769, 0.383972435
35.786, 0.322885912
35.802, 0.254818071
35.819, 0.190240888
35.836, 0.122173048
35.852, 0.055850536
35.869, -0.012217305
35.886, -0.078539816
35.903, -0.146607657
35.919, -0.212930169
35.936, -0.28099801
35.953, -0.347320521
35.969, -0.411897703
35.986, -0.478220215
36.003, -0.542797397
36.019, -0.60562925
36.036, -0.668461104
36.053, -0.727802298
36.069, -0.785398163
36.086, -0.836012712
36.103, -0.883136602
36.119, -0.923279174
36.136, -0.954695101
36.153, -0.98087504
36.169, -0.998328332
36.186, -1.012290966
36.203, -1.015781625
36.22, -1.012290966
36.236, -1.000073661
36.253, -0.982620369
36.27, -0.95644043
36.286, -0.925024504
36.303, -0.884881931
36.32, -0.83950337
36.336, -0.788888822
36.353, -0.733038286
36.37, -0.673697091
36.386, -0.610865238
36.403, -0.546288056
36.42, -0.478220215
36.436, -0.411897703
36.453, -0.345575192
36.47, -0.27925268
36.486, -0.212930169
36.503, -0.146607657
36.52, -0.080285146
36.537, -0.013962634
36.553, 0.050614548
36.57, 0.11693706
36.587, 0.183259571
36.603, 0.247836754
36.62, 0.314159265
36.637, 0.376991118
36.653, 0.436332313
36.67, 0.493928178
36.687, 0.551524044
36.703, 0.609119909
36.72, 0.664970445
36.737, 0.717330323
36.753, 0.766199542
36.77, 0.811578102
36.787, 0.853466004
36.803, 0.890117919
36.82, 0.918043187
36.837, 0.942477796
36.853, 0.959931089
36.87, 0.968657735
36.887, 0.970403064
36.904, 0.965167076
36.92, 0.952949772
36.937, 0.945968455
36.954, 0.930260491
36.97, 0.902335223
36.987, 0.86393798
37.004, 0.822050078
37.02, 0.771435529
37.037, 0.720820981
37.054, 0.663225116
37.07, 0.60737458
37.087, 0.542797397
37.104, 0.478220215
37.12, 0.413643033
37.137, 0.34906585
37.154, 0.284488668
37.17, 0.223402144
37.187, 0.160570291
37.204, 0.095993109
37.221, 0.029670597
37.237, -0.036651914
37.271, -0.172787596
37.287, -0.834267382
37.304, -0.869173967
37.321, -0.900589894
37.337, -0.93375115
37.354, -0.493928178
37.371, -0.993092344
37.387, -1.022762942
37.404, -0.673697091
37.421, -0.729547627
37.437, -0.774926188
37.454, -0.820304748
37.471, -0.858701992
37.487, -0.891863248
37.504, -0.921533845
37.521, -0.944223125
37.538, -0.961676418
37.554, -0.970403064
37.571, -0.970403064
37.588, -0.963421747
37.604, -0.947713784
37.621, -0.925024504
37.638, -0.898844565
37.654, -0.86393798
37.671, -0.851720675
37.688, -0.806342114
37.704, -0.759218225
37.721, -0.703367689
37.738, -0.647517152
37.754, -0.588175958
37.771, -0.525344105
37.788, -0.459021593
37.804, -0.392699082
37.821, -0.328121899
37.838, -0.260054059
37.854, -0.193731547
37.871, -0.127409035
37.888, -0.059341195
37.905, 0.005235988
37.921, 0.06981317
37.938, 0.136135682
37.955, 0.200712864
37.971, 0.267035376
37.988, 0.331612558
38.005, 0.397935069
38.021, 0.464257581
38.038, 0.527089434
38.055, 0.584685299
38.071, 0.640535835
38.088, 0.689405055
38.105, 0.738274274
38.121, 0.783652834
38.138, 0.825540736
38.155, 0.858701992
38.171, 0.890117919
38.188, 0.914552528
38.205, 0.930260491
38.222, 0.942477796
38.238, 0.947713784
38.255, 0.947713784
38.272, 0.938987138
38.288, 0.923279174
38.305, 0.902335223
38.322, 0.874409955
38.338, 0.83950337
38.355, 0.802851456
38.372, 0.774926188
38.388, 0.729547627
38.405, 0.673697091
38.422, 0.616101226
38.438, 0.558505361
38.455, 0.499164166
38.472, 0.438077642
38.488, 0.375245789
38.505, 0.312413936
38.522, 0.247836754
38.538, 0.18675023
38.555, 0.123918377
38.572, 0.064577182
38.589, 0
38.605, -0.064577182
38.622, -0.129154365
38.639, -0.191986218
38.655, -0.258308729
38.672, -0.321140582
38.689, -0.387463094
38.705, -0.448549618
38.722, -0.511381471
38.739, -0.568977336
38.755, -0.628318531
38.772, -0.680678408
38.789, -0.733038286
38.805, -0.780162176
38.822, -0.823795407
38.839, -0.858701992
38.855, -0.88662726
38.872, -0.907571211
38.889, -0.925024504
38.906, -0.93375115
38.922, -0.935496479
38.939, -0.930260491
38.956, -0.919788516
38.972, -0.900589894
38.989, -0.884881931
