time, angle
33.692, 1.6441001553786583
33.702, 1.6388641676226752
33.712, 1.6283921921107094
33.722, 1.6179202165987434
33.732, 1.6074482410867776
33.742, 1.5917402778188285
33.752, 1.5760323145508797
33.762, 1.5498523757709646
33.772, 1.5236724369910497
33.782, 1.4922565104551517
33.792, 1.4660765716752369
33.802, 1.424188669627373
33.812, 1.3875367553354918
33.822, 1.3404128655316452
33.832, 1.293288975727798
33.842, 1.2461650859239513
33.852, 1.1885692206081384
33.862, 1.1257373675363425
33.872, 1.0629055144645467
33.882, 1.0053096491487339
33.892, 0.9372418083209549
33.902, 0.8639379797371932
33.912, 0.7853981633974483
33.922, 0.7120943348136864
33.932, 0.6335545184739416
33.942, 0.5497787143782138
33.952, 0.466002910282486
33.963, 0.37699111843077515
33.973, 0.2932153143350474
33.983, 0.20420352248333656
33.993, 0.11519173063162574
34.003, 0.02617993877991494
34.013, -0.05759586531581287
34.023, -0.1466076571675237
34.033, -0.23561944901923448
34.043, -0.3193952531149623
34.053, -0.39793506945470714
34.063, -0.48694686130641796
34.073, -0.5707226654021458
34.083, -0.6492624817418906
34.093, -0.7225663103256524
34.103, -0.7958701389094143
34.113, -0.8744099552491591
34.123, -0.9424777960769379
34.134, -1.0105456369047168
34.144, -1.0733774899765127
34.154, -1.1362093430483087
34.164, -1.1938052083641213
34.174, -1.2461650859239513
34.184, -1.288052987971815
34.194, -1.335176877775662
34.204, -1.382300767579509
34.214, -1.4189526818713898
34.224, -1.4503686084072878
34.234, -1.4817845349431857
34.244, -1.5079644737231006
34.254, -1.5341444125030157
34.264, -1.5550883635269477
34.274, -1.5707963267948966
34.284, -1.5812683023068623
34.294, -1.5917402778188285
34.304, -1.5969762655748114
34.314, -1.5969762655748114
34.324, -1.5969762655748114
34.334, -1.5917402778188285
34.344, -1.5812683023068623
34.354, -1.5655603390389137
34.364, -1.5498523757709646
34.374, -1.5289084247470328
34.384, -1.5027284859671177
34.394, -1.4765485471872026
34.404, -1.4398966328953218
34.414, -1.403244718603441
34.424, -1.3613568165555772
34.434, -1.324704902263696
34.444, -1.2775810124598492
34.454, -1.2252211349000193
34.464, -1.1676252695842064
34.475, -1.1100294042683936
34.485, -1.0471975511965976
34.495, -0.9843656981248019
34.505, -0.9162978572970231
34.515, -0.8429940287132611
34.525, -0.7749261878854823
34.535, -0.7016223593017205
34.545, -0.6178465552059926
34.555, -0.5393067388662478
34.565, -0.460766922526503
34.575, -0.37699111843077515
34.585, -0.28797932657906433
34.595, -0.20420352248333656
34.605, -0.12042771838760873
34.615, -0.031415926535897934
34.625, 0.05759586531581287
34.635, 0.1466076571675237
34.646, 0.23561944901923448
34.656, 0.3246312408709453
34.666, 0.41364303272265607
34.676, 0.4974188368183839
34.686, 0.5811946409141118
34.696, 0.6544984694978736
34.706, 0.7330382858376184
34.716, 0.8115781021773633
34.726, 0.8848819307611251
34.736, 0.947713783832921
34.746, 1.0157816246606997
34.756, 1.0786134777324956
34.766, 1.1414453308042916
34.776, 1.1938052083641213
34.786, 1.2461650859239513
34.796, 1.2985249634837812
34.806, 1.3404128655316452
34.816, 1.382300767579509
34.826, 1.4189526818713898
34.836, 1.4556045961632709
34.846, 1.4870205226991686
34.856, 1.5184364492350666
34.866, 1.5393804002589986
34.876, 1.5550883635269477
34.886, 1.5707963267948966
34.896, 1.5865042900628454
34.906, 1.5917402778188285
34.916, 1.5969762655748114
34.926, 1.5969762655748114
34.936, 1.5969762655748114
34.946, 1.5917402778188285
34.956, 1.5812683023068623
34.966, 1.5655603390389137
34.976, 1.5446163880149815
34.987, 1.5236724369910497
34.997, 1.4974924982111348
35.007, 1.4660765716752369
35.017, 1.4346606451393389
35.027, 1.392772743091475
35.037, 1.356120828799594
35.047, 1.3089969389957472
35.057, 1.2618730491919004
35.067, 1.2095131716320704
35.077, 1.1571532940722404
35.087, 1.0943214410004445
35.097, 1.0314895879286488
35.107, 0.9686577348568529
35.117, 0.9005898940290741
35.127, 0.8325220532012952
35.137, 0.7539822368615503
35.147, 0.6754424205218055
35.158, 0.5969026041820606
35.168, 0.5131268000863328
35.178, 0.4241150082346221
35.188, 0.3403392041388943
35.198, 0.25132741228718347
35.208, 0.17278759594743862
35.218, 0.08377580409572782
35.228, -0.005235987755982989
35.238, -0.09424777960769379
35.248, -0.17278759594743862
35.258, -0.2617993877991494
35.268, -0.3508111796508602
35.278, -0.43458698374658805
35.288, -0.5078908123303498
35.298, -0.5916666164260777
35.308, -0.6702064327658226
35.318, -0.7487462491055674
35.328, -0.8115781021773633
35.338, -0.8848819307611251
35.348, -0.9529497715889039
35.358, -1.0210176124166828
35.368, -1.0838494654884785
35.378, -1.1362093430483087
35.388, -1.1885692206081384
35.398, -1.2409290981679684
35.408, -1.293288975727798
35.418, -1.3299408900196792
35.428, -1.371828792067543
35.438, -1.4084807063594238
35.448, -1.4451326206513049
35.458, -1.4713125594312197
35.468, -1.4974924982111348
35.478, -1.5184364492350666
35.488, -1.5393804002589986
35.499, -1.5550883635269477
35.509, -1.5655603390389137
35.519, -1.5707963267948966
35.529, -1.5760323145508797
35.539, -1.5760323145508797
35.549, -1.5707963267948966
35.559, -1.5655603390389137
35.569, -1.5498523757709646
35.579, -1.5341444125030157
35.589, -1.5184364492350666
35.599, -1.4922565104551517
35.609, -1.4660765716752369
35.619, -1.4346606451393389
35.629, -1.403244718603441
35.639, -1.36659280431156
35.649, -1.319468914507713
35.659, -1.2775810124598492
35.67, -1.2252211349000193
35.68, -1.1728612573401895
35.69, -1.1152653920243765
35.7, -1.0524335389525807
35.71, -0.9896016858807848
35.72, -0.932005820564972
35.73, -0.8587019919812101
35.74, -0.7853981633974483
35.75, -0.7120943348136864
35.76, -0.6387905062299246
35.77, -0.5602506898901798
35.78, -0.47647488579445196
35.79, -0.39269908169872414
35.8, -0.3193952531149623
35.81, -0.2303834612632515
35.82, -0.1413716694115407
35.83, -0.05759586531581287
35.84, 0.02617993877991494
35.85, 0.11519173063162574
35.86, 0.19896753472735357
35.87, 0.28797932657906433
35.88, 0.37699111843077515
35.89, 0.45029494701453704
35.9, 0.5340707511102649
35.91, 0.6178465552059926
35.92, 0.6963863715457375
35.93, 0.7644542123735164
35.94, 0.8377580409572781
35.95, 0.91106186954104
35.96, 0.9791297103688188
35.97, 1.0367255756846319
35.98, 1.0995574287564276
35.99, 1.1571532940722404
36.0, 1.2095131716320704
36.011, 1.2618730491919004
36.021, 1.3089969389957472
36.031, 1.350884841043611
36.041, 1.392772743091475
36.051, 1.429424657383356
36.061, 1.4556045961632709
36.071, 1.4870205226991686
36.081, 1.5132004614790837
36.091, 1.5289084247470328
36.101, 1.5446163880149815
36.111, 1.5603243512829306
36.121, 1.5655603390389137
36.131, 1.5707963267948966
36.141, 1.5707963267948966
36.151, 1.5707963267948966
36.161, 1.5707963267948966
36.171, 1.5603243512829306
36.182, 1.5446163880149815
36.192, 1.5236724369910497
36.202, 1.5027284859671177
36.212, 1.4765485471872026
36.222, 1.4451326206513049
36.232, 1.4189526818713898
36.242, 1.377064779823526
36.252, 1.335176877775662
36.262, 1.293288975727798
36.272, 1.2461650859239513
36.282, 1.1938052083641213
36.292, 1.1414453308042916
36.302, 1.0786134777324956
36.312, 1.0210176124166828
36.322, 0.9581857593448869
36.332, 0.890117918517108
36.342, 0.8168140899333463
36.352, 0.7487462491055674
36.362, 0.6702064327658226
36.372, 0.5916666164260777
36.382, 0.5078908123303498
36.392, 0.4241150082346221
36.402, 0.3508111796508602
36.412, 0.2617993877991494
36.422, 0.17278759594743862
36.432, 0.0890117918517108
36.442, 0.010471975511965978
36.452, -0.07853981633974483
36.462, -0.16755160819145565
36.472, -0.2565634000431664
36.482, -0.32986722862692824
36.492, -0.41364303272265607
36.502, -0.4974188368183839
36.512, -0.5811946409141118
36.523, -0.6597344572538565
36.533, -0.7330382858376184
36.543, -0.8063421144213802
36.553, -0.8796459430051422
36.563, -0.947713783832921
36.573, -1.0053096491487339
36.583, -1.0681415022205298
36.593, -1.1257373675363425
36.603, -1.1780972450961724
36.613, -1.2252211349000193
36.623, -1.2723450247038663
36.633, -1.319468914507713
36.643, -1.3613568165555772
36.653, -1.392772743091475
36.663, -1.424188669627373
36.673, -1.4556045961632709
36.683, -1.4817845349431857
36.694, -1.5027284859671177
36.704, -1.5184364492350666
36.714, -1.5341444125030157
36.724, -1.5446163880149815
36.734, -1.5498523757709646
36.744, -1.5498523757709646
36.754, -1.5498523757709646
36.764, -1.5498523757709646
36.774, -1.5393804002589986
36.784, -1.5289084247470328
36.794, -1.5132004614790837
36.804, -1.4922565104551517
36.814, -1.4660765716752369
36.824, -1.4398966328953218
36.834, -1.4084807063594238
36.844, -1.371828792067543
36.854, -1.335176877775662
36.864, -1.293288975727798
36.874, -1.2461650859239513
36.884, -1.1990411961201044
36.894, -1.1414453308042916
36.904, -1.0838494654884785
36.914, -1.0314895879286488
36.924, -0.9686577348568529
36.934, -0.9005898940290741
36.944, -0.8325220532012952
36.954, -0.7644542123735164
36.964, -0.6911503837897545
36.974, -0.6126105674500096
36.984, -0.5340707511102649
36.994, -0.460766922526503
37.004, -0.37699111843077515
37.014, -0.2932153143350474
37.024, -0.20943951023931953
37.035, -0.12042771838760873
37.045, -0.031415926535897934
37.055, 0.05759586531581287
37.065, 0.1413716694115407
37.075, 0.2303834612632515
37.085, 0.3089232776029963
37.095, 0.39269908169872414
37.105, 0.47647488579445196
37.115, 0.5602506898901798
37.125, 0.6283185307179586
37.135, 0.7068583470577035
37.145, 0.7853981633974483
37.155, 0.8534660042252271
37.165, 0.9162978572970231
37.175, 0.9843656981248019
37.185, 1.0471975511965976
37.195, 1.1047934165124107
37.206, 1.1623892818282235
37.216, 1.2147491593880533
37.226, 1.2671090369478832
37.236, 1.3089969389957472
37.246, 1.350884841043611
37.256, 1.3875367553354918
37.266, 1.4189526818713898
37.276, 1.4503686084072878
37.286, 1.4765485471872026
37.296, 1.4974924982111348
37.306, 1.5132004614790837
37.316, 1.5289084247470328
37.326, 1.5393804002589986
37.336, 1.5446163880149815
37.346, 1.5498523757709646
37.356, 1.5498523757709646
37.366, 1.5498523757709646
37.376, 1.5393804002589986
37.386, 1.5289084247470328
37.396, 1.5132004614790837
37.406, 1.4922565104551517
37.416, 1.4713125594312197
37.426, 1.4451326206513049
37.436, 1.413716694115407
37.446, 1.377064779823526
37.456, 1.3404128655316452
37.466, 1.2985249634837812
37.476, 1.2514010736799341
37.486, 1.2042771838760875
37.496, 1.1519173063162573
37.506, 1.0995574287564276
37.516, 1.0367255756846319
37.526, 0.9738937226128359
37.536, 0.905825881785057
37.547, 0.8377580409572781
37.557, 0.7644542123735164
37.567, 0.6859143960337715
37.577, 0.6073745796940266
37.587, 0.5288347633542818
37.597, 0.45553093477052
37.607, 0.37175513067479216
37.617, 0.28797932657906433
37.627, 0.19896753472735357
37.637, 0.12566370614359174
37.647, 0.03665191429188092
37.657, -0.05235987755982988
37.667, -0.1361356816555577
37.677, -0.21467549799530253
37.687, -0.2984513020910303
37.697, -0.3822271061867582
37.707, -0.466002910282486
37.718, -0.5445427266222308
37.728, -0.6230825429619756
37.738, -0.7016223593017205
37.748, -0.7749261878854823
37.758, -0.8429940287132611
37.768, -0.905825881785057
37.778, -0.9686577348568529
37.788, -1.0314895879286488
37.798, -1.0943214410004445
37.808, -1.1414453308042916
37.818, -1.1938052083641213
37.828, -1.2409290981679684
37.838, -1.288052987971815
37.848, -1.324704902263696
37.858, -1.3613568165555772
37.868, -1.398008730847458
37.878, -1.424188669627373
37.888, -1.4503686084072878
37.898, -1.4713125594312197
37.908, -1.4922565104551517
37.918, -1.5079644737231006
37.928, -1.5184364492350666
37.938, -1.5236724369910497
37.948, -1.5289084247470328
37.958, -1.5289084247470328
37.968, -1.5289084247470328
37.978, -1.5184364492350666
37.988, -1.5079644737231006
37.998, -1.4922565104551517
38.008, -1.4713125594312197
38.018, -1.4503686084072878
38.028, -1.424188669627373
38.038, -1.392772743091475
38.048, -1.3613568165555772
38.059, -1.319468914507713
38.069, -1.2775810124598492
38.079, -1.2356931104119853
38.089, -1.1833332328521553
38.099, -1.1309733552923256
38.109, -1.0786134777324956
38.119, -1.0210176124166828
38.129, -0.9581857593448869
38.139, -0.895353906273091
38.149, -0.8325220532012952
38.159, -0.7592182246175333
38.169, -0.6859143960337715
38.179, -0.6073745796940266
38.189, -0.5393067388662478
38.199, -0.460766922526503
38.209, -0.37699111843077515
38.219, -0.2932153143350474
38.23, -0.20943951023931953
38.24, -0.12042771838760873
38.25, -0.03665191429188092
38.26, 0.05235987755982988
38.27, 0.1361356816555577
38.28, 0.21467549799530253
38.29, 0.2984513020910303
38.3, 0.3822271061867582
38.31, 0.466002910282486
38.32, 0.5393067388662478
38.33, 0.6178465552059926
38.34, 0.6963863715457375
38.35, 0.7696902001294993
38.36, 0.8377580409572781
38.37, 0.905825881785057
38.38, 0.9686577348568529
38.39, 1.0314895879286488
38.4, 1.0838494654884785
38.41, 1.1414453308042916
38.42, 1.1938052083641213
38.43, 1.2409290981679684
38.44, 1.288052987971815
38.45, 1.324704902263696
38.46, 1.3613568165555772
38.47, 1.398008730847458
38.48, 1.424188669627373
38.49, 1.4503686084072878
38.5, 1.4713125594312197
38.51, 1.4922565104551517
38.52, 1.5079644737231006
38.53, 1.5132004614790837
38.54, 1.5236724369910497
38.55, 1.5236724369910497
38.56, 1.5236724369910497
38.571, 1.5236724369910497
38.581, 1.5184364492350666
38.591, 1.5027284859671177
38.601, 1.4870205226991686
38.611, 1.4660765716752369
38.621, 1.4451326206513049
38.631, 1.4189526818713898
38.641, 1.3875367553354918
38.651, 1.350884841043611
38.661, 1.31423292675173
38.671, 1.2723450247038663
38.681, 1.2252211349000193
38.691, 1.1728612573401895
38.701, 1.1257373675363425
38.711, 1.0681415022205298
38.721, 1.0105456369047168
38.731, 0.9424777960769379
38.742, 0.8796459430051422
38.752, 0.8063421144213802
38.762, 0.7330382858376184
38.772, 0.6597344572538565
38.782, 0.5811946409141118
38.792, 0.5078908123303498
38.802, 0.42935099599060506
38.812, 0.34557519189487723
38.822, 0.2617993877991494
38.832, 0.1832595714594046
38.842, 0.09948376736367678
38.852, 0.010471975511965978
38.862, -0.07330382858376185
38.872, -0.15184364492350666
38.882, -0.23561944901923448
38.892, -0.3193952531149623
38.902, -0.4031710572106901
38.912, -0.47647488579445196
38.922, -0.5550147021341968
38.932, -0.6283185307179586
38.942, -0.7068583470577035
38.952, -0.7749261878854823
38.962, -0.8377580409572781
38.972, -0.905825881785057
38.982, -0.9686577348568529
38.992, -1.0314895879286488
39.002, -1.0838494654884785
39.012, -1.1362093430483087
39.022, -1.1885692206081384
39.032, -1.2356931104119853
39.042, -1.2723450247038663
39.052, -1.31423292675173
39.062, -1.350884841043611
39.072, -1.382300767579509
39.083, -1.413716694115407
39.093, -1.4346606451393389
39.103, -1.4556045961632709
39.113, -1.4765485471872026
39.123, -1.4870205226991686
39.133, -1.4974924982111348
39.143, -1.5027284859671177
39.153, -1.5027284859671177
39.163, -1.5027284859671177
39.173, -1.5027284859671177
39.183, -1.4922565104551517
39.193, -1.4765485471872026
39.203, -1.460840583919254
39.213, -1.4398966328953218
39.223, -1.4189526818713898
39.233, -1.3875367553354918
39.243, -1.356120828799594
39.254, -1.319468914507713
39.264, -1.2828170002158321
39.274, -1.2356931104119853
39.284, -1.1885692206081384
39.294, -1.1414453308042916
39.304, -1.0890854532444616
39.314, -1.0314895879286488
39.324, -0.9738937226128359
39.334, -0.91106186954104
39.344, -0.8482300164692442
39.354, -0.7801621756414653
39.364, -0.7068583470577035
39.374, -0.6335545184739416
39.384, -0.5654866776461628
39.394, -0.48694686130641796
39.404, -0.4031710572106901
39.414, -0.3246312408709453
39.424, -0.24609142453120048
39.434, -0.16231562043547265
39.444, -0.07853981633974483
39.454, 0.005235987755982989
39.464, 0.09424777960769379
39.474, 0.16755160819145565
39.484, 0.25132741228718347
39.494, 0.3351032163829113
39.504, 0.41887902047863906
39.514, 0.49218284906240095
39.524, 0.5707226654021458
39.534, 0.6492624817418906
39.544, 0.7225663103256524
39.554, 0.7906341511534312
39.564, 0.8587019919812101
39.574, 0.921533845053006
39.584, 0.9843656981248019
39.595, 1.0471975511965976
39.605, 1.1047934165124107
39.615, 1.1571532940722404
39.625, 1.2042771838760875
39.635, 1.2514010736799341
39.645, 1.288052987971815
39.655, 1.3299408900196792
39.665, 1.3613568165555772
39.675, 1.392772743091475
39.685, 1.4189526818713898
39.695, 1.4398966328953218
39.705, 1.460840583919254
39.715, 1.4765485471872026
39.725, 1.4870205226991686
39.735, 1.4974924982111348
39.745, 1.5027284859671177
39.755, 1.5027284859671177
39.766, 1.5027284859671177
39.776, 1.4922565104551517
39.786, 1.4817845349431857
39.796, 1.4660765716752369
39.806, 1.4451326206513049
39.816, 1.424188669627373
39.826, 1.398008730847458
39.836, 1.36659280431156
39.846, 1.335176877775662
39.856, 1.2985249634837812
39.866, 1.2566370614359172
39.876, 1.2147491593880533
39.886, 1.1623892818282235
39.896, 1.1152653920243765
39.906, 1.0576695267085636
39.916, 1.0000736613927508
39.926, 0.9372418083209549
39.936, 0.8796459430051422
39.946, 0.8115781021773633
39.956, 0.7382742735936013
39.966, 0.6649704450098396
39.976, 0.5916666164260777
39.986, 0.5183627878423159
39.996, 0.4398229715025711
40.006, 0.3560471674068432
40.016, 0.2722713633111154
40.026, 0.19896753472735357
40.036, 0.11519173063162574
40.046, 0.031415926535897934
40.056, -0.05759586531581287
40.066, -0.1308996938995747
40.076, -0.21467549799530253
40.086, -0.2984513020910303
40.096, -0.3822271061867582
40.107, -0.460766922526503
40.117, -0.5393067388662478
40.127, -0.6126105674500096
40.137, -0.6859143960337715
40.147, -0.7592182246175333
40.157, -0.8220500776893291
40.167, -0.890117918517108
40.177, -0.9529497715889039
40.187, -1.0105456369047168
40.197, -1.0629055144645467
40.207, -1.1152653920243765
40.217, -1.1676252695842064
40.227, -1.2147491593880533
40.237, -1.2514010736799341
40.247, -1.293288975727798
40.257, -1.3299408900196792
40.267, -1.3613568165555772
40.278, -1.3875367553354918
40.288, -1.413716694115407
40.298, -1.4346606451393389
40.308, -1.4503686084072878
40.318, -1.460840583919254
40.328, -1.4713125594312197
40.338, -1.4765485471872026
40.348, -1.4765485471872026
40.358, -1.4765485471872026
40.368, -1.4765485471872026
40.378, -1.4660765716752369
40.388, -1.4503686084072878
40.398, -1.4346606451393389
40.408, -1.413716694115407
40.418, -1.392772743091475
40.428, -1.3613568165555772
40.438, -1.3299408900196792
40.448, -1.2985249634837812
40.458, -1.2566370614359172
40.468, -1.2147491593880533
40.478, -1.1676252695842064
40.488, -1.1205013797803596
40.498, -1.0681415022205298
40.508, -1.0105456369047168
40.518, -0.9529497715889039
40.528, -0.890117918517108
40.538, -0.8325220532012952
40.548, -0.7644542123735164
40.558, -0.6911503837897545
40.568, -0.6178465552059926
40.578, -0.5497787143782138
40.588, -0.47123889803846897
40.598, -0.39269908169872414
40.608, -0.3089232776029963
40.619, -0.2303834612632515
40.629, -0.1466076571675237
40.639, -0.06283185307179587
40.649, 0.020943951023931956
40.659, 0.10995574287564278
40.669, 0.1832595714594046
40.679, 0.26703537555513246
40.689, 0.3508111796508602
40.699, 0.42935099599060506
40.709, 0.5026548245743669
40.719, 0.5811946409141118
40.729, 0.6544984694978736
40.739, 0.7278022980816354
40.749, 0.7906341511534312
40.759, 0.8587019919812101
40.769, 0.926769832808989
40.779, 0.9843656981248019
40.79, 1.0419615634406147
40.8, 1.0995574287564276
40.81, 1.1519173063162573
40.82, 1.1990411961201044
40.83, 1.2409290981679684
40.84, 1.2775810124598492
40.85, 1.31423292675173
40.86, 1.350884841043611
40.87, 1.377064779823526
40.88, 1.403244718603441
40.89, 1.424188669627373
40.9, 1.4398966328953218
40.91, 1.4556045961632709
40.92, 1.4660765716752369
40.93, 1.4713125594312197
40.94, 1.4765485471872026
40.95, 1.4765485471872026
40.96, 1.4765485471872026
40.97, 1.4660765716752369
40.98, 1.4556045961632709
40.99, 1.4346606451393389
41.0, 1.4189526818713898
41.01, 1.392772743091475
